x,y,theta
-0.1778436215205453,1.2808011380792312,1.5839381897671547
-0.16727683682846664,1.280875607754955,1.5835066300463243
-0.15666685107007391,1.280951375827659,1.5830388424012698
-0.14601330224551973,1.2810276501557698,1.5825348472687804
-0.1353158389015043,1.2811036331656698,1.5819946734667871
-0.12457412023923725,1.2811785221682435,1.581418358214691
-0.11378781621695712,1.2812515096828643,1.580805947148928
-0.10295660765056215,1.2813217837682735,1.580157494336719
-0.0920801863079233,1.2813885283606417,1.5794730622846798
-0.08115825500029673,1.2814509236182952,1.5787527219451132
-0.07019052766772196,1.2815081462731994,1.577996552717722
-0.059176729459964966,1.2815593699888617,1.5772046424481054
-0.04811659681241302,1.281603765724507,1.5763770874227347
-0.03700987751540711,1.2816405021053814,1.5755139923593946
-0.02585633077900311,1.2816687457988574,1.5746154703947939
-0.01465572729043676,1.2816876618962216,1.5736816430673919
-0.003407849266347955,1.281696414299825,1.572712640297195
0.007887509502860731,1.281694166115395,1.5717086003606386
0.019230543613825493,1.2816800800492114,1.570669669862836
0.03062143602022034,1.281653318809887,1.5695960037041798
0.04206035800779888,1.2816130455144727,1.5684877650447202
0.05354746917896754,1.2815584240985534,1.567345125262964
0.06502088088102032,1.2814915241250506,1.5662166405849867
0.07582289871618612,1.281449187396064,1.5656154448366886
0.08555762995775079,1.2814681014158746,1.5658498497184148
0.0942192666680208,1.2815646055202925,1.5669234534874308
0.10180653370098561,1.2817520759852474,1.5688361683678824
0.10831724780791288,1.2820412366407097,1.5715884527977053
0.11374835874374714,1.2824401590214414,1.5751812712757918
0.11809602299961534,1.2829542501768998,1.579616037113003
0.12135571084635156,1.283586228776973,1.5848945377113477
0.12352234765463643,1.2843360907162464,1.5910188418994489
0.12459049068773373,1.2852010660173825,1.5979911887814424
0.12455454268077044,1.2861755694755457,1.6058138575508423
0.12340900354500291,1.2872511481707738,1.614489017756414
0.12114876139212342,1.2884164297071088,1.6240185596310575
0.11776942376618266,1.289657075805177,1.6344039042923697
0.11326768944606515,1.2909557466646602,1.6456457939235474
0.10764176041568008,1.292292082297856,1.6577440624513242
0.10089179256072867,1.2936427077777244,1.6706973877656708
0.09302038231782664,1.2949812699928709,1.6845030271808978
0.08403308487049348,1.296278513993419,1.6991565386152576
0.07393895754801791,1.2975024072705055,1.7146514908721198
0.0627570946343226,1.298618054178624,1.7309745600314272
0.05093684032930041,1.2995734840931001,1.7477818419215723
0.03920141583042821,1.3003278073558455,1.7645192437383983
0.02761269914865685,1.3008830910349207,1.781141573096253
0.016163995062022582,1.3012445472066456,1.7976561950995453
0.004848282553954209,1.3014169754901737,1.8140705689710765
-0.006341750385263424,1.3014047626738552,1.830392237231088
-0.017413673914242016,1.3012118832204036,1.846628816059658
-0.0283752853367621,1.3008419004610503,1.8627879867529273
-0.03923457981155402,1.3002979683087756,1.8788774881837265
-0.049999722636570806,1.2995828333399422,1.8949051101747507
-0.06067902296302123,1.2986988371121178,1.9108786876937067
-0.0712809087912736,1.2976479186033187,1.9268060957821938
-0.0818139030897555,1.2964316166749623,1.9426952451254689
-0.09228660088389354,1.2950510724764748,1.958554078177876
-0.1027076471510043,1.293507031725188,1.9743905657525067
-0.11308571536257353,1.2917998468095178,1.9902127039896218
-0.12342948650944564,1.2899294786778586,2.0060285116149528
-0.13374762844791824,1.2878954984892064,2.0218460274014607
-0.14404877540371228,1.2856970890150259,2.03767330774739
-0.1543415074682306,1.2833330457954921,2.0535184242810383
-0.1646343299281617,1.2808017780658707,2.069389461406792
-0.17493551374827065,1.2781013284323706,2.085294408401179
-0.185241232888118,1.2752311012267634,2.1012321104392617
-0.19553270566046643,1.2721928248871837,2.1171903293548713
-0.20580399427894086,1.268986705331289,2.1331673017222252
-0.21605081613716307,1.2656128027901374,2.1491626066266996
-0.22626885042067982,1.2620712657623256,2.1651757996407888
-0.23645373712653212,1.2583623333287677,2.1812064107052755
-0.2466010762485788,1.254486337559396,2.1972539420397226
-0.25670642714789166,1.250443706001065,2.2133178660926935
-0.2667653081220478,1.2462349642355794,2.2293976235382864
-0.276773196188154,1.241860738495349,2.2454926213269184
-0.2867255270948869,1.237321758322755,2.2616022307992916
-0.2966160755007604,1.232619259191766,2.277724459955344
-0.3064029647842691,1.227763781333314,2.2938279580499366
-0.3160502176678651,1.22276625076315,2.3098851014165955
-0.32556250714306345,1.2176281820651598,2.3259008299487185
-0.33494634865867057,1.2123503388877932,2.34188160458932
-0.344208230348855,1.206933174546784,2.357833914699645
-0.3533545926272917,1.2013768391818571,2.3737642725368344
-0.3623918084128786,1.195681186994735,2.3896792080061866
-0.371326163884383,1.1898457835572078,2.405585263626323
-0.38016383966180417,1.1838699131887331,2.4214889896438763
-0.38891089231624093,1.1777525864124787,2.437396939235219
-0.397573236112919,1.171492547508264,2.4533156637321847
-0.40615662489755544,1.1650882821893507,2.4692517078100398
-0.4146666340374613,1.1585380254398625,2.4852116045731227
-0.4231086423378088,1.151839769556724,2.501201870476925
-0.4314878138559916,1.1449912724492375,2.517229000022718
-0.43980923752135226,1.1379899843974541,2.533299644190362
-0.448076683794386,1.1308333749415265,2.5494198856942774
-0.4562878662486167,1.1235208710583904,2.5655911394840576
-0.4644386515088424,1.1160525735229911,2.581813415763029
-0.4725247436286309,1.1084287095529286,2.598086619782759
-0.48054168990626034,1.1006496396401253,2.6144105518644967
-0.4884848815504427,1.0927158662238274,2.630784903458581
-0.49634955504826334,1.0846280423758745,2.6472092533711207
-0.5041307942641247,1.0763869804512682,2.663683064181603
-0.5118235332925823,1.067993660655317,2.68020567887283
-0.5193998750406498,1.059460501081618,2.696754843559133
-0.5267204825431808,1.0508579071220128,2.713201092337963
-0.5337401937682752,1.0422153082152277,2.7295003982193053
-0.5404671538165244,1.0335365202232532,2.7456585067373993
-0.5469097626088598,1.0248248418746488,2.761681421551799
-0.5530765454448514,1.01608311696487,2.777575300449188
-0.558976120712717,1.007313751163363,2.793346441526725
-0.5646171702097705,0.9985187289349988,2.8090012706751226
-0.5700084119151942,0.9896996304121592,2.8245463303109464
-0.5751585750538687,0.9808576480758202,2.839988269305569
-0.580076377284406,0.9719936031270808,2.8553338340523844
-0.5847705038451304,0.9631079614497227,2.8705898606130065
-0.589249588491244,0.9542008490834054,2.885763267880254
-0.5935221960585296,0.9452720671438717,2.900861051694653
-0.5975968064934125,0.9363211061408988,2.915890279851925
-0.6014818001905068,0.9273471596601252,2.9308580879359605
-0.6051854444859021,0.9183491373857593,2.9457716759143953
-0.6087158811585042,0.9093256774528771,2.960638305433247
-0.6120811147959688,0.9002751581288287,2.975465297746206
-0.6152890018888366,0.8911957088312816,2.9902600322163497
-0.6183472405210377,0.8820852204992294,3.0050299453274487
-0.6212629570700439,0.8729416439981642,3.019782069231429
-0.6238743100006379,0.8638853013049369,3.0343286000602134
-0.6257598674136128,0.8552356262140279,3.048171946104871
-0.6268629293482701,0.8470593014615967,3.0612265109024754
-0.6271953229462631,0.8393722319740162,3.07348587917914
-0.6267696979450773,0.832187330992603,3.0849452504080723
-0.6255991823239253,0.8255146678839764,3.0956012154531205
-0.6236970724758372,0.8193616274823617,3.1054515417273247
-0.6210765578232393,0.8137330747955097,3.1144949693851025
-0.6177504790028009,0.808631519735068,3.122731020461382
-0.6137311181728151,0.8040572773594405,3.1301598223449094
-0.6090300196151427,0.8000086199129204,3.136781946525205
-0.6036578385935226,0.7964819176820971,-3.1405870439889156
-0.597624216356258,0.7934717663615896,-3.1355754952133355
-0.5909376792159348,0.7909710992137572,-3.131367618312381
-0.5836055597689526,0.7889712828280834,-3.127962357787273
-0.5756339385222579,0.7874621957318206,-3.1253587795894315
-0.5670276044439752,0.7864322894904952,-3.123556136296207
-0.5577900332432878,0.7858686322669775,-3.122553916746897
-0.5479233824913828,0.7857569350983568,-3.1223518803334978
-0.5374285030155411,0.7860815614073964,-3.1229500760885807
-0.5263049663148756,0.7868255205076712,-3.124348846650003
-0.5145786400067647,0.7879522829754967,-3.126513859469637
-0.5026503519165945,0.7891834605762225,-3.1289345107947493
-0.4908255617951487,0.7903203397863164,-3.1312232021990174
-0.4791123831859249,0.7913615201688817,-3.1333701044803575
-0.4675112847904569,0.7923104780294213,-3.135375037243193
-0.45602268418822034,0.7931706573696427,-3.1372378378462282
-0.4446469500330389,0.7939454680873849,-3.138958360228278
-0.4333844041905684,0.7946382843353638,-3.140536473811625
-0.4222353238104371,0.7952524430308576,3.141213244694269
-0.41119994332920856,0.7957912425073392,3.139920283511465
-0.40027845639835574,0.7962579413004959,3.1387700397257703
-0.38947101773401127,0.7966557570600205,3.137762591340816
-0.37877774488457805,0.7969878655792997,3.136898005146536
-0.36819871991321856,0.797257399935005,3.1361763373240343
-0.3577339909921114,0.7974674497290233,3.1355976339653697
-0.3473835739066597,0.797621060424906,3.135161931508459
-0.3371474534670885,0.7977212327717524,3.134869257086015
-0.32702558482591604,0.7977709223083096,3.1347196287884618
-0.3170178947003567,0.7977730389402249,3.1347130558411624
-0.3071242824973464,0.7977304465843023,3.1348495386943602
-0.297344621341633,0.7976459628728432,3.13512906902743
-0.28767875900537093,0.7975223589123401,3.135551629666324
-0.27812623815637133,0.7973624587654385,3.136116842366029
-0.2686435375503936,0.797183812305408,3.136770303416098
-0.25914082862658827,0.7970178003302371,3.137399393277665
-0.24960701827901957,0.7968675278199185,3.137990147389419
-0.2400421594253947,0.7967322798086764,3.138542575359754
-0.23044630310084344,0.7966113381240046,3.1390566862967813
-0.22081949850373078,0.7965039813835848,3.1395324887839227
-0.21116179304397034,0.7964094849899479,3.1399699908579937
-0.20147323239275908,0.7963271211233132,3.140369199988414
-0.19175386053423593,0.7962561587325373,3.140730123058205
-0.1820037198191671,0.7961958635242649,3.1410527663468653
-0.1722228510203382,0.7961454979504612,3.141337135514732
-0.16241129338965257,0.796104321194424,3.141583235588829
-0.15256908471752292,0.7960715891552499,-3.141394236228674
-0.14269626139369188,0.7960465544310581,-3.1412246618529647
-0.1327928584701667,0.7960284663009242,-3.1410933454029872
-0.12285890972596487,0.7960165707057067,-3.1410002844904232
-0.11289444773377925,0.796010110227851,-3.1409454774049106
-0.10289950392842552,0.7960083240703052,-3.140928923118181
-0.09287410867755116,0.7960104480345973,-3.140950621286114
-0.08281829135366632,0.7960157144983147,-3.1410105722498933
-0.07273208040882337,0.7960233523919302,-3.141108777034637
-0.06261550345070648,0.7960325871752497,-3.1412452373470536
-0.05247176169271577,0.7960424115161647,-3.1414159659914316
-0.04232525097683183,0.7960506763292241,-3.141590334751738
-0.032187265463840535,0.7960567796064303,3.1414311534458355
-0.022057860499832598,0.7960609345350869,3.141277962424004
-0.0119370296824095,0.7960633577269717,3.1411354000691816
-0.0018247665309943496,0.796064265541316,3.1410034670402807
0.00827893550706611,0.7960638740830964,3.1408821639486213
0.018374083050106054,0.7960623992013562,3.1407714913586586
0.028460682776340722,0.7960600564875582,3.1406714497879573
0.03853874141743293,0.7960570612739651,3.140582039707989
0.04860826575254723,0.7960536286320496,3.140503261544332
0.05866926260254735,0.7960499733709057,3.1404351156766985
0.06872173882366354,0.796046310035715,3.140377602439661
0.07876570130186776,0.7960428529061919,3.140330722122483
0.08880115694680263,0.7960398159950719,3.1402944749695507
0.09882811268601287,0.7960374130465953,3.1402688611804255
0.1088465754591263,0.7960358575350066,3.1402538809099845
0.1188565522121059,0.796035362663056,3.1402495342684924
0.12885804989148356,0.7960361413605156,3.1402558213217056
0.13885107543871442,0.7960384062826857,3.140272742090853
0.14883563578461165,0.7960423698088934,3.140300296552529
0.1588117378436339,0.7960482440410185,3.140338484638794
0.16877947303724936,0.7960562234072227,3.140387200026426
0.1787433705900024,0.7960655301038914,3.1404407602290476
0.188710146091774,0.796074711454224,3.140490733083878
0.19868034479372412,0.7960835637829637,3.140536435439654
0.20865396796841876,0.7960920020942409,3.1405778673116007
0.21863101687866862,0.7960999413495121,3.140615028718168
0.22861149277693632,0.7961072964675827,3.1406479196806423
0.23859539690410386,0.7961139823247931,3.1406765402235646
0.24858273048879953,0.7961199137550575,3.140700890374429
0.2585734947465079,0.7961250055499562,3.1407209701636694
0.26856769087846993,0.7961291724588949,3.1407367796249
0.2785653200710538,0.7961323291891184,3.1407483187945644
0.2885663834946487,0.7961343904058714,3.140755587712187
0.2985708823028843,0.7961352707324576,3.140758586420205
0.3085788176316239,0.7961348847503718,3.1407573149640946
0.31859019059814236,0.79613314699937,3.140751773392262
0.3286050023001396,0.7961299719775968,3.1407419617561256
0.3386232538149704,0.7961252741416308,3.140727880109951
0.3486449461984584,0.796118967906697,3.1407095285111817
0.3586700804842093,0.7961109676466781,3.140686907020159
0.36869865768272797,0.7961011876941998,3.14066001570008
0.3787306787801597,0.79608954234089,3.1406288546174297
0.388766144737759,0.7960759458373109,3.1405934238414943
0.3988039800032202,0.7960608445164369,3.1405550746943085
0.40883855652846796,0.79604703238625,3.1405208711206205
0.4188680328835035,0.7960355448586058,3.140493113632715
0.42889239671457746,0.7960265118452075,3.1404718033352363
0.43891163657861215,0.7960200626688817,3.140456940126292
0.4489257409454948,0.7960163265705138,3.1404485239490896
0.45893469819578,0.7960154327106816,3.1404465547921943
0.4689384966188425,0.7960175101710372,3.1404510326892403
0.4789371244105598,0.7960226879559477,3.1404619577192214
0.4889305696713947,0.7960310949939061,3.1404793300062934
0.49891882040428126,0.7960428601390451,3.1405031497198097
0.5089018645125084,0.7960581121726522,3.1405334170743746
0.5188796897977399,0.7960769798045932,3.140570132329719
0.5288522839579354,0.7960995916747887,3.140613295790696
0.5388196345852923,0.7961260763546724,3.1406629078072674
0.5487817291641317,0.7961565623486794,3.140718968774542
0.5587385550690953,0.7961911780955152,3.1407814791324347
0.568690099562872,0.7962300519697343,3.140850439365913
0.5786363497942265,0.7962733122831072,3.140925850004863
0.5885772927962063,0.7963210872858436,3.1410077116237343
0.5985129154836942,0.7963735051682791,3.1410960248419997
0.6084432046519421,0.7964306940618329,3.1411907903233898
0.6183685413094331,0.7964924787582728,3.1412915143201943
0.6282992634431963,0.7965508888978666,3.1413852203337225
0.638246505119259,0.7965969597215208,3.1414579706789834
0.6482108627166844,0.7966298326515633,3.141509076809003
0.6581923850992869,0.7966490763395001,3.1415385373719094
0.6681911197645812,0.796654258677135,3.1415463516090405
0.6782071128208921,0.7966449468155622,3.1415325193542536
0.6882404089638637,0.7966207071848905,3.141497041033995
0.6982910514530309,0.7965811055141865,3.141439917667306
0.7083590820879058,0.7965257068521087,3.141361150866457
0.718444541184136,0.796454075587799,3.141260742837508
0.7285474675493862,0.7963657754723438,3.141138696381269
0.7386678984590257,0.7962603696407652,3.140995014894539
0.7488058696316304,0.7961374206345659,3.1408297023716383
0.7589614152045188,0.7959964904246432,3.1406427634059604
0.7691345677087155,0.7958371404351703,3.1404342031923242
0.779325358044426,0.795658931567455,3.1402040275287604
0.7895338154555887,0.7954614242251579,3.139952242819559
0.7997599675051343,0.7952441783393404,3.1396788560775404
0.8100038400493803,0.7950067533948976,3.1393838749275176
0.8202654572129531,0.7947487084570284,3.139067307609235
0.83054484136305,0.7944696021989707,3.138729162981279
0.8408419001952067,0.7941691116953423,3.138369592616372
0.851071338668679,0.7939376873042486,3.138096027239394
0.860996193212915,0.7940325789973297,3.1382068776661667
0.8705753311677483,0.7945058355931796,3.138753498606233
0.879807898871361,0.7953656136895854,3.139735886958424
0.8886924951990672,0.7966196670333223,3.1411540976546135
0.8972271682816713,0.7982753405739533,-3.1401770691083177
0.9054094149218151,0.8003395606518383,-3.137886847210027
0.913236182809088,0.8028188212217986,-3.1351603582251815
0.9207038756742751,0.8057191660358957,-3.1319973957414478
0.9278083615578743,0.8090461667386117,-3.128397748082616
0.9345449844078447,0.812804896854395,-3.1243612163740964
0.9409085792540851,0.816999901685076,-3.1198876351385416
0.946893491241252,0.8216351641728614,-3.1149768954253414
0.9524935988318813,0.8267140668293211,-3.10962897046941
0.957702341516011,0.8322393498840795,-3.103843943860589
0.9625127523854337,0.8382130658637101,-3.097622040190801
0.966917495944499,0.8446365308771574,-3.09096365812584
0.9709089115336113,0.8515102729590301,-3.0838694058223513
0.9744790627411878,0.8588339778987902,-3.07634013858547
0.9776197931611423,0.8666064330757175,-3.068376998624397
0.9803227888288316,0.8748254699089794,-3.0599814567291674
0.9825807573877401,0.8834866704130755,-3.0511566192069943
0.984444585475394,0.8925203487418191,-3.041971558181985
0.985993120210516,0.9018274039763299,-3.0325249324831747
0.9872231675359157,0.9114002998856107,-3.022822167427206
0.9881241521547789,0.9212391384385747,-3.01286061594472
0.9886853464085098,0.9313436133270864,-3.0026376881027588
0.9888958943490972,0.9417129722785236,-2.9921508710599825
0.9887448391682481,0.9523459781937419,-2.9813977502178806
0.9882211542439435,0.9632408692889267,-2.9703760315890637
0.9873137780641433,0.974395318456226,-2.9590835653956704
0.9860116532733981,0.9858063921065229,-2.947518370892179
0.9843037700762315,0.9974705088012484,-2.9356786623943574
0.9821792142077199,1.0093833980318423,-2.9235628764759456
0.9796272196517771,1.0215400595584179,-2.9111697002733394
0.9766372262523237,1.0339347237710101,-2.8984981008177013
0.9731989423136477,1.046560813593802,-2.88554735528622
0.9693024122310953,1.0594109085058165,-2.872317082037857
0.9649380891273304,1.0724767113033953,-2.858807272269986
0.9600969123909849,1.0857490182799063,-2.845018322099851
0.9547703899279523,1.099217693540527,-2.8309510648434704
0.9489506848359155,1.1128716482073089,-2.8166068032300355
0.9426307061054994,1.1266988252953283,-2.8019873412573046
0.9357426387270532,1.1407362180263814,-2.7870412658771935
0.9278956659891562,1.1552727248124721,-2.7714414275405788
0.9189015529702741,1.1704071709848096,-2.7550518506610486
0.9087034554190259,1.1861220305927103,-2.7378550637400765
0.8972435026712682,1.2023950590655519,-2.7198339662611346
0.8844630956004612,1.2191988695508142,-2.7009719505338996
0.8703035508133203,1.2365003043305267,-2.681253266974124
0.8547068743011167,1.2542598063522126,-2.6606634320860736
0.8376166769845599,1.272430809278059,-2.6391896803095354
0.8189792420057221,1.2909591692697582,-2.616821459362454
0.7987447496252358,1.309782666780954,-2.593550966749186
0.7768686599001055,1.3288306116470907,-2.5693737226642064
0.7533132457652241,1.3480235893154946,-2.5442891716155933
0.7280492596142977,1.367273389609795,-2.518301301755415
0.7011341964131084,1.3864446809004276,-2.491474548608776
0.67338049951963,1.405048735757927,-2.4644061472064593
0.645273843347931,1.4228340003434092,-2.4374328683755353
0.6168005267250275,1.4398126864372711,-2.410528461269725
0.5879372747733922,1.4559975329933228,-2.3836613999005998
0.5586587300427802,1.471397995567249,-2.3568000895020966
0.528937809545338,1.4860200768819032,-2.329912932863199
0.4987460683034149,1.4998661687125217,-2.3029683962544136
0.46805407376068386,1.51293490379493,-2.2759350774133633
0.43683179575129594,1.5252210174265302,-2.248781778052747
