x,y,theta
0.6748556019261299,1.1684207484746174,0.969786062942581
0.6627592552621445,1.1809995252466903,0.9885933791661774
0.6506021990114406,1.193262319278579,1.0072668400968379
0.6383813540994602,1.2052175116822297,1.0258162016906232
0.6260928458884406,1.2168731475604808,1.044251317549123
0.6137320551842815,1.228236903608089,1.0625821207175905
0.6012936677286081,1.2393160588673526,1.0808186073876787
0.5887717221809887,1.250117468228213,1.0989708223154784
0.5761596566361366,1.2606475382923923,1.117048845770868
0.56345035376569,1.2709122052470854,1.1350627818319783
0.550636184708711,1.2809169144236676,1.1530227478415656
0.5377090518642137,1.2906666012478603,1.1709388648462413
0.524660430768695,1.3001656733172782,1.1888212488405259
0.5114814112641373,1.309417993373852,1.206680002641793
0.49816273818206647,1.3184268629700313,1.2245252082257352
0.4846948517898689,1.3271950066581408,1.2423669193529898
0.4710679282568918,1.3357245565657203,1.2602151543236966
0.45727192041694353,1.3440170372497227,1.2780798886950446
0.44329659911093866,1.3520733507569336,1.2959710478024942
0.4291315954049997,1.3598937618506952,1.3138984989258722
0.41476644398680057,1.3674778833985848,1.3318720429434379
0.40019062804908984,1.374824661951181,1.3499014053182812
0.3853936259700897,1.3819323635798693,1.3679962262648289
0.3703649601044382,1.3887985600791912,1.3861660499425854
0.3550942479926944,1.395420115680622,1.4044203125286456
0.3395712562934573,1.4017931744662666,1.4227683290216557
0.3237859605995903,1.4079131480668858,1.441219276599095
0.30777851517232296,1.4137640325275458,1.4597469181465286
0.2917199269691213,1.41930557845585,1.4782336105488465
0.27564820607496887,1.4245321910524782,1.4966570954144691
0.2595622102346286,1.4294470975942837,1.515022781929538
0.24346036000435517,1.4340532783974644,1.5333362245860123
0.2273406751970323,1.438353446292002,1.5516031090804967
0.21120081153604936,1.44235002798741,1.5698292386784267
0.19503809747190473,1.4460451472358569,1.5880205210065457
0.17884957113468566,1.4494406097049102,1.606182955230957
0.16263201741159328,1.4525378894801924,1.624322619574011
0.14638200515745675,1.4553381171272155,1.642445659116575
0.13009592455533128,1.4578420692529879,1.6605582738315565
0.1137700246597362,1.4600501595193702,1.6786667067886256
0.09740045115988082,1.4619624310735113,1.696777232470712
0.08098328441479312,1.4635785503737646,1.7148961451359064
0.06451457780705372,1.4648978024047377,1.7330297471640819
0.04799039647657664,1.4659190872891377,1.7511843373186666
0.0314068564863389,1.466640918320173,1.7693661988607579
0.014760164479413395,1.4670614214533348,1.7875815874469225
-0.0019533421249389683,1.467178336312479,1.8058367187482096
-0.01873715434551649,1.46698901878055,1.8241377557231742
-0.03559455023128228,1.466490445260995,1.842490795486282
-0.05252855280063439,1.465679218710845,1.8609018557093941
-0.06954188731644528,1.4645515765610624,1.8793768605012806
-0.08663693790118845,1.4631034006532377,1.8979216257138454
-0.10379206777746074,1.4613319886541805,1.9165256774946107
-0.12089489206407492,1.4592433894402324,1.9351164515361763
-0.13791196125167218,1.456841765906149,1.9536752047946173
-0.15484405300263465,1.4541291156164902,1.9722065603407275
-0.17169210712559893,1.4511071643026574,1.9907152236938295
-0.1884571824020455,1.447777363298085,2.009205965348647
-0.20514042026629137,1.4441408882889744,2.0276836079655576
-0.22174300876672928,1.4401986397850186,2.0461530136745836
-0.2382661468396969,1.4359512452746526,2.064619071466086
-0.25471100891508264,1.4313990630381872,2.0830866846336056
-0.27107870987561034,1.4265421875995186,2.1015607582364666
-0.2873702703874289,1.4213804568056327,2.120046186546297
-0.3035865826251069,1.4159134605301442,2.1385478404443647
-0.31972837641429286,1.4101405510048501,2.1570705547350038
-0.33579618582169085,1.404060854789698,2.1756191153425455
-0.3517745717263627,1.397677312166468,2.194186963358309
-0.3675868376085153,1.3910099612265074,2.2127232800914616
-0.38321329556101863,1.38406711143796,2.2312172773070245
-0.3986591184637579,1.376850768286355,2.2496758763271316
-0.41392950778525456,1.3693624714692663,2.268106067608379
-0.42902964185854653,1.361603306667743,2.286514891847573
-0.44396463309534634,1.3535739167918261,2.304909426976568
-0.45873948627230277,1.3452745145700589,2.3232967754139375
-0.47335905779436155,1.3367048964490231,2.3416840514905264
-0.4878280158367006,1.327864457791432,2.360078368960001
-0.5021508012818436,1.3187522093775401,2.378486828512072
-0.5163315893655772,1.3093667952367787,2.396916505197993
-0.5303742519660658,1.2997065118500855,2.415374435686294
-0.5442823204742306,1.2897693287825738,2.4338676052611454
-0.5580589492059812,1.279552910817801,2.4524029344833025
-0.5716895657746122,1.269062502071917,2.4709736358466223
-0.5849805195678975,1.2583879179678616,2.489430555434435
-0.5978124152923976,1.2475955365788347,2.5076790276078462
-0.6101899882569423,1.2366977304799354,2.525721224971276
-0.6221207780931269,1.2257051517940094,2.5435613424282675
-0.6336130476012451,1.214627624136491,2.5612039936374362
-0.6446756967586016,1.2034741497650119,2.5786541790322657
-0.6553181815589658,1.192252920921129,2.595917255499261
-0.6655504378035099,1.1809713346929709,2.612998907816885
-0.6753828098828072,1.1696360107714765,2.6299051219280587
-0.6848259845193712,1.1582528115206256,2.6466421600920134
-0.6938909293785689,1.1468268638331385,2.6632165379355817
-0.7025888364103723,1.1353625822912992,2.6796350034066645
-0.7109310697402691,1.1238636932048196,2.6959045176114795
-0.7189291179012829,1.1123332591430357,2.712032237506998
-0.7265945501686805,1.1007737036289709,2.7280255004023877
-0.7339352034538447,1.0891893772006815,2.743888370886408
-0.7408853990896205,1.0776347807091373,2.7595572221908196
-0.7473801333410651,1.06616757382176,2.7749670897391248
-0.753420958695262,1.054801431660154,2.79011357108039
-0.759012914550824,1.043547452512897,2.8049952407642325
-0.7641618179400069,1.0324159268264426,2.819611191598211
-0.7688741816837957,1.021416342744943,2.8339610028477455
-0.773157135615664,1.010557397051189,2.848044708121403
-0.7770183513043911,0.9998470108433036,2.8618627632425424
-0.7804659706061312,0.9892923492969765,2.8754160143732737
-0.7835085382858233,0.9788998448861099,2.8887056666239506
-0.7861549388641246,0.9686752234673496,2.901733253346981
-0.7884143377731468,0.9586235326708573,2.91450060628255
-0.790296126841558,0.9487491720797195,2.9270098266954445
-0.791809874071235,0.9390559247267998,2.939263257611053
-0.7929652776247877,0.9295469894799543,2.9512634572366867
-0.7937721239030545,0.9202250139331976,2.9630131736292746
-0.7942402495605568,0.9110921274661443,2.9745153206492034
-0.7943795072853371,0.9021499741749742,2.985772955224183
-0.7941997351481889,0.893399745422175,2.996789255926915
-0.793710729318504,0.8848422117868461,3.0075675028613
-0.7929222199315556,0.8764777542372145,3.018111058834833
-0.7918438498926111,0.8683063943762267,3.0284233517893426
-0.7904851564001559,0.8603278236435195,3.0385078584507674
-0.7888555549751662,0.8525414313821859,3.048368089154243
-0.7869643257866069,0.8449463317042482,3.0580075737935815
-0.7848206020713614,0.8375413891087689,3.067429848841723
-0.7824444091207584,0.8303147207927724,3.0766518071851756
-0.7799377501601974,0.8231751379856695,3.0857911111911047
-0.7773510428035474,0.8160770012194264,3.0949070784945647
-0.7746854400667567,0.8090203334462829,3.1040004575242586
-0.7719417183962183,0.8020054999954648,3.113071543330414
-0.7691206681261588,0.795032844048264,3.122120646798745
-0.766223092401639,0.7881026872338273,3.1311480942229633
-0.7632498061323134,0.7812153302377279,3.1401542268794636
-0.76020163497654,0.7743710534223002,-3.1340459065755684
-0.7570794143562514,0.7675701174569023,-3.1250813218082385
-0.7538839885025373,0.7608127639567005,-3.1161369423016145
-0.7506162095314615,0.7540992161289839,-3.1072123710513817
-0.7472769365505234,0.7474296794251543,-3.098307198155215
-0.7438670347948888,0.7408043421977824,-3.089421001218898
-0.740387374793735,0.7342233763609494,-3.080553345757704
-0.736838831565802,0.7276869380533263,-3.07170378559358
-0.7332222838443511,0.7211951683023651,-3.062871863247171
-0.7295386133304597,0.7147481936892554,-3.054057110325408
-0.7257887039748397,0.7083461270130709,-3.0452590479036563
-0.7219734412872749,0.7019890679536414,-3.036477186902895
-0.7180937116733318,0.6956771037321523,-3.027711028461619
-0.7141504017975919,0.6894103097689186,-3.018960064302715
-0.7101443979734582,0.6831887503369777,-3.0102237770944096
-0.7060765855778246,0.677012479211992,-3.0015016408069046
-0.7019478484914776,0.6708815403163372,-2.9927931210626237
-0.6977563326180317,0.6647988555635508,-2.9841017838903166
-0.6934079625818413,0.6588650101596267,-2.9755710695476387
-0.6887885670736371,0.6532040328927939,-2.967379836060455
-0.6838956282075278,0.6478234182039077,-2.9595403235569053
-0.6787339345015666,0.6427224843934336,-2.952053462267154
-0.6733082214438336,0.6379000520136658,-2.944919941494675
-0.667623142282072,0.6333544734060302,-2.9381402371835414
-0.6616832417599308,0.6290836614682872,-2.931714638447034
-0.6554929326595057,0.6250851174200703,-2.9256432729579225
-0.6490564749988084,0.621355957371503,-2.9199261311216422
-0.6423779577274018,0.6178929375322295,-2.914563088970277
-0.6354612827598678,0.6146924779303917,-2.909553929733061
-0.6283101511882772,0.6117506845386735,-2.9048983640519626
-0.6209280515189681,0.6090633697296477,-2.900596048821997
-0.6133182497834538,0.6066260710070807,-2.896646604648229
-0.6054837813829144,0.6044340679783821,-2.8930496319167007
-0.5974274445340964,0.6024823975523522,-2.8898047254846184
-0.5891517951952472,0.6007658673618006,-2.8869114879996465
-0.5806591433623235,0.5992790674240247,-2.884369541861337
-0.5719515506381629,0.5980163800635442,-2.8821785398392765
-0.563030828988635,0.5969719881327532,-2.880338174365475
-0.5538985406141509,0.5961398815732976,-2.8788481855157673
-0.5445559988761539,0.5955138623700615,-2.8777083676966373
-0.5350042702319134,0.595087547955381,-2.876918575050556
-0.5252441771426327,0.5948543731278432,-2.876478725591988
-0.5152763019327534,0.5948075905549516,-2.876388804082333
-0.5051009915892983,0.5949402699349627,-2.876648863650331
-0.494718363502168,0.5952452958977277,-2.8772590261597784
-0.4841292882073089,0.5957145624471452,-2.878217841124242
-0.4733999558071009,0.5962871981818483,-2.8794139115052735
-0.46263806002536456,0.5968733152793072,-2.8806662485511914
-0.4518533387569777,0.5974640935238341,-2.881958286227753
-0.4410456581841586,0.5980586408263966,-2.8832900106689996
-0.4302148852193682,0.5986560615191104,-2.884661405439363
-0.4193608876498339,0.5992554564218625,-2.886072451470845
-0.4084835342838554,0.5998559229126729,-2.887523126998599
-0.39758269509846694,0.6004565550022135,-2.889013407495525
-0.3866582413889705,0.6010564434122375,-2.890543265604927
-0.3757100459197074,0.6016546756584809,-2.8921126710721854
-0.3647379830761412,0.6022503361380818,-2.8937215906752116
-0.353741929018424,0.6028425062215255,-2.895369988153288
-0.3427217618359465,0.6034302643495352,-2.8970578241350005
-0.3316773617029866,0.6040126861349331,-2.8987850560649377
-0.3206086110353727,0.6045888444696261,-2.9005516381291714
-0.30951539464773664,0.6051578096370455,-2.9023575211800736
-0.298397599911911,0.6057186494298317,-2.904202652659408
-0.28725511691535266,0.6062704292734484,-2.906086976521379
-0.2760878386204473,0.6068122123553533,-2.9080104331540717
-0.26489566102377654,0.6073430597602725,-2.90997295930062
-0.2536784833157424,0.6078620306114546,-2.9119744879792795
-0.24243620804014976,0.6083681822181618,-2.914014948402871
-0.23116874125333772,0.6088605702296307,-2.916094265898074
-0.21987599268336386,0.6093382487953463,-2.91821236182354
-0.20855787588838426,0.6098002707320404,-2.9203691534880254
-0.19721430841433793,0.6102456876973995,-2.9225645540681486
-0.18584521195186415,0.6106735503705562,-2.9247984725256577
-0.17445051249205115,0.6110829086395406,-2.927070813524641
-0.15874465240263377,0.6126346716231227,-2.93638519832927
-0.08582087872350891,0.6250674975273185,-3.0379720545590905
-0.0068004670199544644,0.6301604310601417,3.1353548853113207
0.009571826069155508,0.6301464478820278,3.125255596628084
0.019444013389343796,0.6301496435480742,3.1254758717438023
0.029497073528275766,0.6301480530427251,3.125410874355346
0.039730714492326784,0.6301359316679956,3.1250606843348816
0.05014466149569423,0.63010738087972,3.1244253408141205
0.060738652067362724,0.6300563470208584,3.1235048430632357
0.07151243050202154,0.6299766200585154,3.1222991520509815
0.08246574164849105,0.6298618323816938,3.1208081926876208
0.09359832402914589,0.6297054577209218,3.1190318567534128
0.10490990228422352,0.6295008102550941,3.1169700065164037
0.11640017893585686,0.6292410439751973,3.1146224790440113
0.12806882546762616,0.628919152379082,3.111989091214392
0.13991547271828172,0.6285279685758115,3.1090696454327347
0.15193970059030748,0.6280601658827331,3.105863936059019
0.16414102707820596,0.6275082590027521,3.102371756552384
0.17651889662490314,0.6268646058738127,3.0985929073380287
0.1890726678210175,0.6261214102864885,3.0945272043996113
0.20180160046661066,0.625270725369756,3.090174488600585
0.21470484202313392,0.6243044580482563,3.085534635734204
0.22778141349073305,0.6232143745774599,3.08060756730024
0.24103019475579207,0.6219921072652427,3.0753932620021853
0.25444990946294277,0.6206291624900836,3.0698917679560074
0.2680391094778779,0.6191169301262192,3.0641032155953587
0.28179615901895233,0.6174466944854866,3.0580278312535647
0.2957192185488288,0.615609646883377,3.051665951396325
0.3098062285317229,0.6135968999329016,3.0450180374716425
0.3240548931763055,0.6113995036643447,3.0380846913362216
0.3384975391773739,0.6089893413644288,3.030809329520494
0.35423193352773436,0.6057211418007925,3.021373688279814
0.371435212980936,0.6013916765994501,3.009441486062868
0.3882649488316798,0.5970614229724677,2.998041724124292
0.4045433677043095,0.5928764315691251,2.987484442569973
0.4202787300170741,0.5888711001240658,2.9777725288257253
0.4354795873300627,0.5850780452113906,2.9689078006403964
0.45015453642799547,0.5815281475514218,2.9608912125094875
0.46431199616498164,0.5782506130327233,2.953723045958287
0.4779600069703827,0.5752730444484403,2.9474030825232074
0.491106052411703,0.5726215194103442,2.9419307586904475
0.503756901859058,0.5703206703793645,2.937305302382601
0.5159184730812602,0.5683937632136797,2.9335258508298168
0.5275957135064565,0.5668627710701621,2.9305915498340642
0.5387924988821158,0.5657484408936901,2.9285016345444683
0.549511548157633,0.5650703500838412,2.927255491912013
0.5597543535678293,0.5648469512447136,2.9268527050031246
0.5695211251084851,0.5650956032011519,2.9272930793268035
0.5788107488535585,0.565832586710879,2.9285766512809843
0.5876207588569733,0.5670731035270685,2.930703678762759
0.5959473227029657,0.5688312576786333,2.9336746139204566
0.6037852411097242,0.5711200180481738,2.937490057963087
0.6111279623411803,0.5739511615553984,2.942150697897592
0.6179676125365391,0.5773351965066872,2.9476572250390607
0.62429504341109,0.5812812659689731,2.954010235152639
0.6300998991077641,0.5857970313771655,2.9612101101393407
0.6353707042677863,0.590888537006749,2.9692568812888105
0.6400949756249515,0.5965600564461293,2.9781500742959555
0.6442593595884419,0.60281392279745,2.987888536487377
0.6478618705871136,0.6096375985732516,2.9984504190856107
0.651141915051125,0.6167630905742219,3.0094210205351395
0.6543336749486311,0.6239367222599316,3.0204109854895087
0.6574452305021652,0.6311484971993081,3.0314062962540724
0.6604753229907903,0.6383983778438487,3.0424081941335075
0.6634226748248722,0.6456863169911685,3.053417912080141
0.6662859906785249,0.6530122561885003,3.0644366737167648
0.669063958685778,0.6603761241190576,3.075465692349592
0.6717552517017001,0.6677778349732345,3.0865061699716536
0.6743585286313782,0.6752172868050743,3.0975592962544525
0.6768724358289041,0.6826943598754307,3.1086262475270345
0.6792956085685566,0.6902089149833941,3.119708185741633
0.6816266725909589,0.6977607917871568,3.130806257424302
0.6838642457262266,0.7053498071164689,-3.1412637145694147
0.6860069395966224,0.7129757532785198,-3.130130003417281
0.688053361401123,0.7206383963593869,-3.1189768225062493
0.6900021157839132,0.7283374745237612,-3.107803097829881
0.6918518067895848,0.7360726963151027,-3.0966077763023643
0.693601039906446,0.7438437389598616,-3.0853898269109368
0.6952484242006559,0.7516502466783126,-3.0741482418874657
0.6967925745426032,0.7594918290059347,-3.06288203789859
0.6982321139275864,0.7673680591287919,-3.05159025725478
0.6995656758921232,0.7752784722371705,-3.040271969137758
0.70079190702741,0.783222563901652,-3.028926270846108
0.7019094695910697,0.7911997884762311,-3.0175522890585085
0.7029170442177639,0.7992095575336535,-3.006149181113485
0.7038124868688463,0.8072519673122932,-2.9947150930829554
0.7045197607013833,0.8153901716409343,-2.9831579834284123
0.7048991992276092,0.823737380263736,-2.9713132183130284
0.7049228357487843,0.8323060373701049,-2.959157706097261
0.7045754426918439,0.841096598929591,-2.9466845496733027
0.7038415434427403,0.8501089534954358,-2.9338868821385735
0.7027054459914678,0.8593423600025915,-2.920757900734772
0.7011512834155592,0.8687953823890897,-2.9072909044559583
0.6991630619380514,0.8784658213097841,-2.8934793355380455
0.6967247173123825,0.8883506433181836,-2.8793168250184293
0.6938201802947002,0.8984459080101266,-2.8647972425277493
0.6904334519522837,0.9087466937590377,-2.849914750435685
0.6865486895283271,0.919247022820532,-2.8346638624260088
0.6821503035267206,0.9299397867488989,-2.8190395065135236
0.6772230665984861,0.9408166732420047,-2.8030370924441312
0.6717522346941271,0.9518680957159051,-2.786652583332011
0.665723680789977,0.9630831271009038,-2.7698825712856476
0.6591240413013524,0.9744494395389887,-2.752724356660945
0.6519408750502627,0.9859532518469086,-2.7351760304475965
0.6441628343654906,0.997579286776132,-2.717236559152998
0.6357798475521458,1.0093107402443973,-2.698905871392614
0.6267833115781447,1.0211292648216679,-2.6801849452304976
0.6171662933946536,1.0330149698109263,-2.661075895146645
0.6070030151030446,1.0449004799936834,-2.641658408749583
0.5965971102885572,1.0565943052273652,-2.6222276175044534
0.5859988798466789,1.068064065441284,-2.6028306717360525
0.5751762257805214,1.0793243036236873,-2.583436800610272
0.5642122723998592,1.0903284995298037,-2.5641215353284617
0.5535805828108503,1.1008430491871293,-2.5453091158777226
0.5434421576545523,1.1108179805781855,-2.5271242094834077
0.5338366988565547,1.1202684436342036,-2.5095796222901727
0.524799949642275,1.1292108876652325,-2.492685763435401
0.5163638099761916,1.1376626799188012,-2.4764508264088927
0.5085564951334524,1.1456417515330244,-2.4608809806714875
0.5014027286636,1.1531662739072892,-2.4459805690127783
0.49492396138128125,1.1602543671279435,-2.4317523066246234
0.48913860867965225,1.1669238408637055,-2.4181974784641325
0.4840622992554985,1.173191967139962,-2.4053161320725223
0.47970812920223527,1.1790752836083331,-2.3931072635852355
0.4760869163153736,1.1845894253351459,-2.3815689951967483
0.47320745032352424,1.1897489827198462,-2.370698742819352
0.47107673557446655,1.1945673828986731,-2.3604933730911926
0.46970022345640694,1.1990567918617814,-2.3509493492487135
0.46908203249224406,1.203228034494138,-2.3420628656709273
0.4692251546218208,1.2070905298110546,-2.3338299711462334
0.4701316466679381,1.2106522387832679,-2.326246681098449
0.4718028063734936,1.2139196223142188,-2.319309079146354
0.4742393327115271,1.2168976071262068,-2.313013408471302
0.47744147040311097,1.21958955752484,-2.307356153526698
0.48140913874538666,1.2219972512306347,-2.3023341126530332
0.4861420449642948,1.2241208576851965,-2.297944462169636
0.4916397823569155,1.2259589174585095,-2.294184812491715
0.4979019135087136,1.2275083215914686,-2.291053256792417
0.5049280388409366,1.228764289913699,-2.2885484126753513
0.5127178506928625,1.2297203475719773,-2.2866694572654396
